# Wilkinson Microwave Anisotropy Probe (WMAP) 9-year data release.
# WMAP 9-Year Combined Power Spectrum, version 5.0 (December 2012)
#
# References: - WMAP Explanatory Supplement: http://lambda.gsfc.nasa.gov/
#             - Bennett, et al. (2012)
#             - Hinshaw, et al. (2012)
#
# Column 1 = multipole moment l
# Column 2 = TT power spectrum, units = uK^2, = l(l+1)/2pi * C_l.
#             This uses the maximum likelihood of the marginalized distribution 
#             at that l, for l up to and including 32.  
#             For l > 32, the C^-1 estimate is used.
# Column 3 = 'Error' derived from diagonal terms of Fisher matrix, units = uK^2.
#             Included only as an estimate of their magnitude.  The
#             multipole moments are slightly coupled, so a correct
#             treatment of errors requires use of the entire Fisher matrix.
# Column 4 = portion of column3 error attributed to measurement errors,
#             in "2SN + NN" form, units = uK^2.
# Column 5 = portion of column3 error attributed to cosmic variance, 
#             assuming the best-fit LCDM model
           2       150.6398       708.3154         8.6102       708.2630
           3       902.1805       565.3141         9.6361       565.2320
           4       730.3626       471.9324        10.1917       471.8224
           5      1467.8517       409.7481        10.5276       409.6128
           6       688.5324       366.8310        10.7223       366.6742
           7      1272.9914       336.2774        10.8606       336.1020
           8       603.8108       313.7279        10.9598       313.5364
           9       605.5998       296.6357        11.0565       296.4296
          10       918.1212       283.4338        11.1531       283.2143
          11       972.2889       272.9552        11.2646       272.7227
          12       716.7145       264.7720        11.3819       264.5272
          13       878.0790       258.0293        11.5144       257.7723
          14       828.4221       252.4174        11.6377       252.1489
          15      1112.5057       247.5395        11.7773       247.2592
          16       730.5889       243.9536        11.9281       243.6618
          17      1014.1750       240.7406        12.0724       240.4377
          18       729.9205       238.1254        12.2154       237.8119
          19       868.0217       236.2484        12.3880       235.9234
          20       731.7402       234.4936        12.5521       234.1574
          21       648.8223       233.0897        12.7283       232.7419
          22       625.0736       231.9384        12.9061       231.5790
          23       755.7853       230.9548        13.0891       230.5836
          24       844.8535       230.1961        13.2780       229.8128
          25       749.2468       229.6717        13.4741       229.2761
          26       885.9176       229.2413        13.6741       228.8332
          27       942.7882       229.0104        13.8812       228.5893
          28      1209.2431       228.9189        14.0934       228.4847
          29      1160.6891       228.9186        14.3090       228.4710
          30       938.1419       229.0862        14.5306       228.6249
          31      1095.8896       229.2682        14.7523       228.7931
          32      1516.8735       229.6210        14.9794       229.1319
          33      1020.2872       230.0375        15.2106       229.5340
          34      1015.4604       230.5063        15.4414       229.9885
          35       897.4112       231.1157        15.6756       230.5835
          36      1025.1892       231.6972        15.9108       231.1503
          37      1386.7990       232.3702        16.1479       231.8084
          38      1349.7274       233.1170        16.3880       232.5403
          39      1420.2065       233.9524        16.6323       233.3604
          40      1909.9515       234.8198        16.8789       234.2124
          41      1206.7104       235.7200        17.1282       235.0969
          42      1455.2822       236.6470        17.3801       236.0079
          43      1327.3545       237.6070        17.6350       236.9517
          44      1292.2217       238.5927        17.8924       237.9209
          45      1117.7233       239.6376        18.1537       238.9489
          46      1035.5095       240.7224        18.4179       240.0167
          47      1644.5292       241.8502        18.6852       241.1273
          48       914.3522       243.0000        18.9555       242.2596
          49      1555.2567       244.1906        19.2282       243.4323
          50      1575.1228       245.4142        19.5014       244.6382
          51      1176.8585       246.6745        19.7747       245.8806
          52      1557.1862       247.9800        20.0520       247.1680
          53      1134.3741       249.2997        20.3296       248.4694
          54      1252.4326       250.6408        20.6107       249.7919
          55      1467.5354       251.9857        20.8920       251.1182
          56      1676.0629       253.3672        21.1758       252.4807
          57      1598.8917       254.7958        21.4618       253.8903
          58      1789.8887       256.2588        21.7508       255.3340
          59      1366.9397       257.7557        22.0438       256.8113
          60      1905.9812       259.2625        22.3379       258.2984
          61      1590.6790       260.8036        22.6373       259.8193
          62      2168.9714       262.3593        22.9382       261.3546
          63      1791.4490       263.9342        23.2429       262.9088
          64      1548.8033       265.5331        23.5497       264.4867
          65      1589.7109       267.1603        23.8587       266.0928
          66      1616.4797       268.8287        24.1706       267.7399
          67      1633.3380       270.5178        24.4844       269.4075
          68      1977.6631       272.2272        24.8023       271.0950
          69      2382.4131       273.9565        25.1232       272.8021
          70      1603.8628       275.6945        25.4464       274.5176
          71      1718.3727       277.4345        25.7716       276.2349
          72      1447.3859       279.2090        26.0991       277.9865
          73      2796.8291       281.0110        26.4288       279.7655
          74      2172.0691       282.8552        26.7621       281.5863
          75      2078.3823       284.7450        27.0981       283.4527
          76      1727.9230       286.6585        27.4360       285.3426
          77      1778.1305       288.5882        27.7762       287.2484
          78      1656.0239       290.5327        28.1176       289.1689
          79      1799.3439       292.4905        28.4602       291.1026
          80      2190.4910       294.4603        28.8060       293.0479
          81      2086.7888       296.4638        29.1541       295.0268
          82      2896.8918       298.4805        29.5037       297.0187
          83      2040.7607       300.5233        29.8572       299.0365
          84      1890.1868       302.5847        30.2126       301.0726
          85      2268.7698       304.6575        30.5703       303.1198
          86      2621.1748       306.7537        30.9301       305.1904
          87      2440.8008       308.8641        31.2925       307.2748
          88      1905.3622       310.9791        31.6571       309.3636
          89      2604.0527       313.1088        32.0233       311.4669
          90      2099.4607       315.2534        32.3932       313.5847
          91      2450.8091       317.4035        32.7643       315.7079
          92      2505.2031       319.5783        33.1377       317.8556
          93      2816.8608       321.7585        33.5141       320.0083
          94      2443.0762       323.9535        33.8924       322.1757
          95      2211.8906       326.1632        34.2732       324.3575
          96      2358.4727       328.3782        34.6553       326.5444
          97      2614.5454       330.6171        35.0413       328.7548
          98      1966.0112       332.8703        35.4290       330.9795
          99      2966.4709       335.1287        35.8188       333.2090
         100      2924.8508       337.4105        36.2123       335.4616
         101      2543.8469       339.6972        36.6056       337.7192
         102      2720.2131       341.9981        37.0021       339.9905
         103      2599.6890       344.3129        37.4009       342.2756
         104      3221.4587       346.6327        37.8016       344.5653
         105      2242.4265       348.9662        38.2046       346.8686
         106      2954.0625       351.3047        38.6093       349.1766
         107      3336.0925       353.6479        39.0167       351.4890
         108      3998.8875       356.0050        39.4263       353.8151
         109      2762.9573       358.3669        39.8375       356.1457
         110      3384.9514       360.7337        40.2505       358.4811
         111      3051.7939       363.0967        40.6654       360.8123
         112      2887.9824       365.4645        41.0828       363.1481
         113      2480.0417       367.8459        41.5021       365.4972
         114      2409.7405       370.2148        41.9228       367.8335
         115      3268.6541       372.5969        42.3462       370.1828
         116      3811.4221       374.9666        42.7700       372.5194
         117      4525.1748       377.3410        43.1967       374.8603
         118      3814.0127       379.7200        43.6247       377.2057
         119      3508.1113       382.0867        44.0536       379.5385
         120      2729.0261       384.4579        44.4853       381.8756
         121      4321.1660       386.8170        44.9179       384.2002
         122      3412.7195       389.1724        45.3517       386.5208
         123      3790.3740       391.5241        45.7868       388.8376
         124      2924.6956       393.8722        46.2238       391.1504
         125      3185.2681       396.2084        46.6613       393.4512
         126      3580.9934       398.5412        47.1003       395.7482
         127      3666.7271       400.8623        47.5397       398.0333
         128      3606.9521       403.1718        47.9802       400.3066
         129      3165.2322       405.4699        48.4218       402.5682
         130      4150.1636       407.7567        48.8643       404.8182
         131      3447.0515       410.0322        49.3079       407.0567
         132      3083.1873       412.2967        49.7522       409.2839
         133      3817.7319       414.5425        50.1970       411.4921
         134      3468.9634       416.7779        50.6424       413.6897
         135      4201.2715       419.0030        51.0894       415.8766
         136      4890.7632       421.2022        51.5367       418.0374
         137      3775.5205       423.3840        51.9835       420.1806
         138      4164.5327       425.5563        52.4322       422.3139
         139      4347.6631       427.6960        52.8800       424.4144
         140      3914.2166       429.8269        53.3288       426.5058
         141      4192.7090       431.9337        53.7778       428.5728
         142      4363.0615       434.0166        54.2276       430.6156
         143      4419.2988       436.0839        54.6771       432.6426
         144      3604.4880       438.1205        55.1259       434.6386
         145      5339.9785       440.1342        55.5754       436.6114
         146      4163.4360       442.1257        56.0245       438.5617
         147      4199.7925       444.0874        56.4729       440.4821
         148      3903.4314       446.0199        56.9218       442.3728
         149      3633.2964       447.9312        57.3695       444.2422
         150      4808.1904       449.8140        57.8176       446.0826
         151      3958.1355       451.6685        58.2652       447.8947
         152      4484.4058       453.4878        58.7110       449.6712
         153      5174.7725       455.2868        59.1568       451.4273
         154      4169.3042       457.0585        59.6028       453.1556
         155      4952.2485       458.8029        60.0481       454.8564
         156      4203.0552       460.5129        60.4923       456.5226
         157      4471.1460       462.2036        60.9369       458.1690
         158      5765.2358       463.8676        61.3807       459.7886
         159      4885.1802       465.5053        61.8244       461.3816
         160      4938.2744       467.1168        62.2671       462.9481
         161      4377.1118       468.6950        62.7098       464.4809
         162      4052.7625       470.2475        63.1515       465.9878
         163      4709.3882       471.7744        63.5928       467.4688
         164      5139.1499       473.2616        64.0335       468.9096
         165      4648.7793       474.7236        64.4729       470.3251
         166      4948.3403       476.1463        64.9115       471.7010
         167      5066.4209       477.5444        65.3502       473.0518
         168      5243.1558       478.8966        65.7867       474.3565
         169      4946.0791       480.2246        66.2225       475.6367
         170      4467.5044       481.5073        66.6567       476.8713
         171      5054.9238       482.7592        67.0903       478.0746
         172      4901.3516       483.9664        67.5222       479.2329
         173      5129.0752       485.1362        67.9528       480.3536
         174      5053.8418       486.2690        68.3820       481.4369
         175      4927.3008       487.3650        68.8098       482.4830
         176      5310.4492       488.4105        69.2359       483.4783
         177      4889.2148       489.4199        69.6605       484.4371
         178      4804.4229       490.3866        70.0829       485.3528
         179      6070.4478       491.3040        70.5035       486.2190
         180      5318.7593       492.1864        70.9223       487.0498
         181      4258.4141       493.0203        71.3390       487.8317
         182      4406.9990       493.8130        71.7541       488.5720
         183      4665.1104       494.5580        72.1670       489.2643
         184      5555.3799       495.2625        72.5775       489.9158
         185      5570.0400       495.9270        72.9861       490.5268
         186      5615.7773       496.5381        73.3920       491.0842
         187      5001.3354       497.1098        73.7966       491.6017
         188      6005.6304       497.6425        74.1984       492.0799
         189      6189.0991       498.1230        74.5972       492.5057
         190      6164.7241       498.5652        74.9947       492.8926
         191      5392.3564       498.9560        75.3888       493.2277
         192      5697.6543       499.3092        75.7808       493.5250
         193      6105.7490       499.6117        76.1702       493.7711
         194      5102.0293       499.8772        76.5571       493.9800
         195      4545.5459       500.0928        76.9414       494.1385
         196      5287.7051       500.2655        77.3226       494.2538
         197      5737.7993       500.3955        77.7014       494.3260
         198      6151.8813       500.4833        78.0778       494.3555
         199      5147.4673       500.5292        78.4510       494.3429
         200      5496.0459       500.5269        78.8211       494.2817
         201      5281.0322       500.4833        79.1893       494.1787
         202      5979.9434       500.3922        79.5536       494.0279
         203      6082.6826       500.2539        79.9146       493.8295
         204      6271.7988       500.0688        80.2724       493.5840
         205      5776.6455       499.8371        80.6269       493.2915
         206      5170.5469       499.5593        80.9788       492.9522
         207      5194.6138       499.2355        81.3265       492.5668
         208      5098.0552       498.8596        81.6704       492.1289
         209      4825.1479       498.4321        82.0109       491.6389
         210      6167.0425       497.9660        82.3478       491.1100
         211      5698.5942       497.4489        82.6813       490.5295
         212      5665.0674       496.8874        83.0113       489.9043
         213      5905.9917       496.2817        83.3376       489.2344
         214      5310.0068       495.6259        83.6598       488.5141
         215      6641.1401       494.9266        83.9783       487.7499
         216      5680.7964       494.1839        84.2937       486.9418
         217      5504.0088       493.3984        84.6055       486.0904
         218      6046.3525       492.5638        84.9129       485.1895
         219      5328.9072       491.6867        85.2164       484.2458
         220      6371.5835       490.7612        85.5163       483.2531
         221      5928.8853       489.7938        85.8123       482.2180
         222      6154.8589       488.7785        86.1037       481.1346
         223      5915.8833       487.7155        86.3914       480.0031
         224      5747.5571       486.6114        86.6750       478.8299
         225      5361.2681       485.4602        86.9540       477.6092
         226      5898.5264       484.2683        87.2297       476.3473
         227      6048.2891       483.0298        87.5007       475.0383
         228      4800.3794       481.7511        87.7675       473.6887
         229      5121.4668       480.4325        88.0310       472.2985
         230      5443.4077       479.0679        88.2896       470.8620
         231      5704.3267       477.6578        88.5435       469.3794
         232      6537.8765       476.2145        88.7943       467.8630
         233      6200.2437       474.7260        89.0397       466.3011
         234      5089.4365       473.1926        89.2808       464.6936
         235      6105.6758       471.6265        89.5184       463.0530
         236      6194.4033       470.0160        89.7508       461.3673
         237      5097.9868       468.3732        89.9797       459.6489
         238      5786.3975       466.6864        90.2034       457.8859
         239      5423.4517       464.9617        90.4222       456.0847
         240      6364.6494       463.1993        90.6371       454.2450
         241      5834.6987       461.4054        90.8476       452.3733
         242      5376.7695       459.5681        91.0536       450.4576
         243      5635.2227       457.6997        91.2552       448.5103
         244      5116.2329       455.7942        91.4521       446.5254
         245      6446.2573       453.8519        91.6438       444.5031
         246      5499.9365       451.8790        91.8315       442.4495
         247      5980.4961       449.8694        92.0146       440.3587
         248      5894.1494       447.8294        92.1931       438.2370
         249      4602.6543       445.7591        92.3675       436.0842
         250      5464.8325       443.6587        92.5372       433.9008
         251      5169.2607       441.5223        92.7023       431.6807
         252      6055.6221       439.3560        92.8627       429.4301
         253      4873.3340       437.1658        93.0189       427.1551
         254      4790.7690       434.9403        93.1706       424.8438
         255      5343.2949       432.6853        93.3174       422.5026
         256      6321.0864       430.4011        93.4585       420.1317
         257      5523.2559       428.0936        93.5964       417.7366
         258      5396.1733       425.7571        93.7294       415.3118
         259      4705.9688       423.3919        93.8570       412.8578
         260      5476.7031       421.0095        93.9817       410.3857
         261      5109.2808       418.5986        94.1010       407.8845
         262      5672.8506       416.1650        94.2152       405.3601
         263      5601.0635       413.7146        94.3261       402.8180
         264      4698.4604       411.2416        94.4328       400.2526
         265      4231.4922       408.7464        94.5339       397.6644
         266      5745.9243       406.2346        94.6315       395.0587
         267      5032.5229       403.7006        94.7242       392.4303
         268      5563.9971       401.1502        94.8127       389.7846
         269      4777.7788       398.5835        94.8979       387.1217
         270      4536.8438       395.9948        94.9773       384.4362
         271      5340.2505       393.3899        95.0518       381.7340
         272      6199.7271       390.7746        95.1235       379.0202
         273      4984.1548       388.1432        95.1903       376.2898
         274      5285.9165       385.4958        95.2528       373.5424
         275      4290.7500       382.8324        95.3104       370.7783
         276      4189.0498       380.1643        95.3652       368.0087
         277      5256.2817       377.4747        95.4144       365.2167
         278      4921.2451       374.7805        95.4600       362.4194
         279      5167.1816       372.0759        95.5021       359.6107
         280      4376.5308       369.3613        95.5393       356.7913
         281      4394.8496       366.6420        95.5729       353.9664
         282      4949.9429       363.9070        95.6015       351.1248
         283      5300.9971       361.1730        95.6276       348.2833
         284      4563.2910       358.4287        95.6493       345.4307
         285      4169.6714       355.6800        95.6662       342.5730
         286      4607.9463       352.9211        95.6794       339.7039
         287      4502.3975       350.1631        95.6887       336.8351
         288      4218.4072       347.4005        95.6943       333.9607
         289      4985.3892       344.6387        95.6959       331.0863
         290      4687.3848       341.8723        95.6939       328.2063
         291      3393.5139       339.1067        95.6880       325.3262
         292      4405.9893       336.3363        95.6785       322.4403
         293      4659.4546       333.5722        95.6650       319.5600
         294      4233.2656       330.8032        95.6480       316.6737
         295      4343.7852       328.0404        95.6279       313.7926
         296      4414.4067       325.2782        95.6036       310.9113
         297      4203.0752       322.5165        95.5751       308.0297
         298      4163.0894       319.7554        95.5425       305.1477
         299      4041.4312       317.0056        95.5084       302.2759
         300      4687.4883       314.2562        95.4693       299.4037
         301      3591.1367       311.5126        95.4271       296.5363
         302      4441.2686       308.7747        95.3818       293.6735
         303      3541.5095       306.0477        95.3342       290.8205
         304      4021.0166       303.3262        95.2828       287.9722
         305      4093.2026       300.6154        95.2282       285.1337
         306      3633.9001       297.9101        95.1700       282.2996
         307      3560.9241       295.2151        95.1096       279.4748
         308      3994.9617       292.5306        95.0466       276.6592
         309      3918.2583       289.8618        94.9815       273.8583
         310      3935.5728       287.1979        94.9121       271.0615
         311      3731.5225       284.5493        94.8416       268.2785
         312      3557.8562       281.9162        94.7688       265.5101
         313      3500.8521       279.2930        94.6933       262.7504
         314      3012.5754       276.6849        94.6154       260.0047
         315      3574.5437       274.0865        94.5342       257.2678
         316      3806.6292       271.5083        94.4525       254.5496
         317      3273.0305       268.9448        94.3686       251.8449
         318      3170.3625       266.4012        94.2834       249.1591
         319      3652.1138       263.8721        94.1962       246.4864
         320      3773.4641       261.3574        94.1068       243.8270
         321      2727.0396       258.8624        94.0156       241.1862
         322      3593.2048       256.3867        93.9234       238.5635
         323      3321.0181       253.9304        93.8304       235.9587
         324      3329.4407       251.4933        93.7356       233.3720
         325      3356.6064       249.0805        93.6413       230.8081
         326      3715.1785       246.6813        93.5443       228.2567
         327      3248.8220       244.3063        93.4459       225.7287
         328      3175.0566       241.9552        93.3482       223.2229
         329      3220.1853       239.6229        93.2491       220.7345
         330      3149.0635       237.3142        93.1499       218.2685
         331      3418.1870       235.0293        93.0504       215.8248
         332      2752.8555       232.7678        92.9502       213.4036
         333      2546.0930       230.5296        92.8508       211.0038
         334      2792.4353       228.3201        92.7510       208.6320
         335      2997.3582       226.1336        92.6522       206.2813
         336      3149.2229       223.9704        92.5532       203.9525
         337      2890.2600       221.8352        92.4545       201.6507
         338      3061.3735       219.7229        92.3555       199.3705
         339      2604.2595       217.6437        92.2595       197.1217
         340      3261.8052       215.5870        92.1633       194.8940
         341      2745.3716       213.5579        92.0681       192.6926
         342      2810.5596       211.5565        91.9741       190.5175
         343      2682.0645       209.5877        91.8826       188.3735
         344      2579.9727       207.6463        91.7926       186.2554
         345      2489.8909       205.7269        91.7020       184.1584
         346      2530.8718       203.8450        91.6153       182.0973
         347      2312.0444       201.9849        91.5294       180.0563
         348      2292.5562       200.1569        91.4466       178.0458
         349      2440.5879       198.3608        91.3660       176.0660
         350      2458.0496       196.5914        91.2866       174.1118
         351      2697.6418       194.8590        91.2122       172.1928
         352      2442.0029       193.1530        91.1392       170.2989
         353      2747.3452       191.4784        91.0691       168.4351
         354      2598.9851       189.8350        91.0029       166.6007
         355      2346.5117       188.2229        90.9390       164.7967
         356      2283.6106       186.6468        90.8804       163.0269
         357      2254.9932       185.1014        90.8254       161.2863
         358      2347.3157       183.5865        90.7737       159.5749
         359      2066.9331       182.1022        90.7257       157.8926
         360      2289.0928       180.6536        90.6829       156.2444
         361      2495.1670       179.2349        90.6440       154.6247
         362      2269.7722       177.8512        90.6103       153.0387
         363      2326.7915       176.4976        90.5800       151.4816
         364      2481.5161       175.1787        90.5561       149.9572
         365      1862.5752       173.8895        90.5360       148.4615
         366      1847.3583       172.6345        90.5225       146.9978
         367      2124.3936       171.4143        90.5145       145.5678
         368      1981.1639       170.2232        90.5101       144.1661
         369      2255.8733       169.0715        90.5150       142.8013
         370      1999.2998       167.9486        90.5239       141.4644
         371      2250.1089       166.8601        90.5387       140.1608
         372      2104.7302       165.7998        90.5599       138.8830
         373      2299.1841       164.7784        90.5887       137.6430
         374      1932.3984       163.7905        90.6239       136.4355
         375      2113.2681       162.8309        90.6649       135.2546
         376      2135.8887       161.9049        90.7127       134.1059
         377      1848.3878       161.0167        90.7694       132.9936
         378      2147.3816       160.1566        90.8317       131.9081
         379      2347.2729       159.3296        90.9019       130.8539
         380      1821.4569       158.5405        90.9812       129.8365
         381      1863.4640       157.7792        91.0671       128.8451
         382      1733.0779       157.0505        91.1606       127.8852
         383      1960.3090       156.3543        91.2626       126.9559
         384      2026.9243       155.6957        91.3742       126.0631
         385      1653.8799       155.0643        91.4918       125.1965
         386      1670.0909       154.4648        91.6197       124.3592
         387      2139.1819       153.8973        91.7555       123.5529
         388      1756.9095       153.3620        91.8998       122.7775
         389      1653.9946       152.8582        92.0532       122.0322
         390      1947.4109       152.3863        92.2155       121.3173
         391      1744.4850       151.9458        92.3881       120.6315
         392      1757.9115       151.5321        92.5672       119.9720
         393      1767.3104       151.1546        92.7586       119.3464
         394      2019.1433       150.8035        92.9577       118.7458
         395      1875.6929       150.4830        93.1663       118.1743
         396      1609.4277       150.1935        93.3844       117.6327
         397      1522.5415       149.9298        93.6107       117.1153
         398      1728.8591       149.6970        93.8478       116.6266
         399      1761.4371       149.4949        94.0953       116.1671
         400      1730.0482       149.3186        94.3509       115.7322
         401      1883.5179       149.1723        94.6168       115.3258
         402      1735.0419       149.0562        94.8936       114.9476
         403      1643.0560       148.9658        95.1794       114.5936
         404      1756.6888       148.9009        95.4737       114.2639
         405      1732.9695       148.8659        95.7795       113.9620
         406      1887.9271       148.8563        96.0941       113.6843
         407      1914.2020       148.8771        96.4206       113.4349
         408      1629.7875       148.9234        96.7561       113.2096
         409      1750.8655       148.9945        97.1015       113.0074
         410      1602.9044       149.0909        97.4558       112.8293
         411      1829.3965       149.2123        97.8202       112.6743
         412      1667.6289       149.3586        98.1945       112.5425
         413      1605.0358       149.5300        98.5793       112.4338
         414      1659.7629       149.7220        98.9724       112.3438
         415      1778.4890       149.9436        99.3767       112.2826
         416      1735.3766       150.1853        99.7891       112.2397
         417      1511.7946       150.4517       100.2130       112.2188
         418      1691.9928       150.7379       100.6440       112.2172
         419      1736.4478       151.0495       101.0870       112.2380
         420      1754.3763       151.3862       101.5403       112.2825
         421      1576.9458       151.7422       102.0010       112.3454
         422      1872.2006       152.1181       102.4719       112.4252
         423      1888.8521       152.5142       102.9510       112.5240
         424      1856.0660       152.9297       103.4390       112.6404
         425      1663.2856       153.3698       103.9379       112.7794
         426      1633.9048       153.8303       104.4453       112.9377
         427      1588.4601       154.3056       104.9608       113.1082
         428      1612.7854       154.8006       105.4854       113.2964
         429      2162.9717       155.3153       106.0188       113.5027
         430      1549.4421       155.8503       106.5618       113.7273
         431      1567.7155       156.4002       107.1129       113.9642
         432      1924.8347       156.9651       107.6713       114.2144
         433      1819.0277       157.5497       108.2387       114.4828
         434      2099.9153       158.1486       108.8137       114.7630
         435      1711.9264       158.7632       109.3964       115.0572
         436      1530.9801       159.3936       109.9879       115.3645
         437      2094.6824       160.0429       110.5888       115.6886
         438      1866.4464       160.7027       111.1951       116.0217
         439      1578.5482       161.3819       111.8109       116.3719
         440      1780.1390       162.0716       112.4333       116.7302
         441      1881.7209       162.7759       113.0632       117.1013
         442      2178.0193       163.4909       113.6997       117.4805
         443      1699.5951       164.2212       114.3450       117.8720
         444      1667.4966       164.9615       114.9954       118.2724
         445      1828.0623       165.7167       115.6543       118.6848
         446      1748.3585       166.4777       116.3176       119.1010
         447      1817.8489       167.2544       116.9889       119.5308
         448      1816.6589       168.0372       117.6656       119.9638
         449      1803.3807       168.8300       118.3487       120.4042
         450      1912.9178       169.6383       119.0399       120.8579
         451      2087.1414       170.4525       119.7357       121.3154
         452      2198.3577       171.2730       120.4358       121.7771
         453      2125.2395       172.1084       121.1451       122.2504
         454      1865.4795       172.9454       121.8568       122.7234
         455      2224.9810       173.7938       122.5754       123.2053
         456      2176.2832       174.6520       123.3005       123.6945
         457      1757.1086       175.5125       124.0296       124.1825
         458      1832.8232       176.3788       124.7626       124.6748
         459      2220.1213       177.2563       125.5031       125.1750
         460      2020.7822       178.1358       126.2470       125.6744
         461      2046.7350       179.0211       126.9960       126.1767
         462      2485.2485       179.9082       127.7480       126.6784
         463      2155.6360       180.8019       128.5047       127.1844
         464      2191.4385       181.6969       129.2647       127.6887
         465      2763.8223       182.5989       130.0308       128.1965
         466      2189.7280       183.5029       130.8005       128.7033
         467      2361.3132       184.4129       131.5744       129.2141
         468      2004.4438       185.3206       132.3502       129.7195
         469      2170.3784       186.2354       133.1317       130.2290
         470      1996.2780       187.1516       133.9163       130.7369
         471      2554.1118       188.0656       134.7035       131.2389
         472      2157.4675       188.9818       135.4933       131.7411
         473      2438.9375       189.9003       136.2873       132.2418
         474      2221.4189       190.8164       137.0828       132.7373
         475      1983.0885       191.7353       137.8820       133.2328
         476      2345.2278       192.6510       138.6826       133.7218
         477      2129.6262       193.5644       139.4847       134.2058
         478      2211.4663       194.4812       140.2914       134.6895
         479      2422.6807       195.3967       141.1001       135.1690
         480      2323.3611       196.3098       141.9103       135.6428
         481      2308.0640       197.2201       142.7223       136.1106
         482      2035.2120       198.1335       143.5385       136.5781
         483      2472.9624       199.0408       144.3542       137.0369
         484      2231.7773       199.9419       145.1707       137.4853
         485      2142.3765       200.8460       145.9906       137.9343
         486      2407.3096       201.7453       146.8113       138.3748
         487      2044.5077       202.6381       147.6326       138.8050
         488      2447.6853       203.5300       148.4556       139.2315
         489      2241.8735       204.4151       149.2783       139.6479
         490      2592.6934       205.3004       150.1035       140.0614
         491      2455.9819       206.1753       150.9279       140.4600
         492      2496.1528       207.0489       151.7536       140.8549
         493      2418.0662       207.9176       152.5801       141.2412
         494      2644.1848       208.7860       153.4091       141.6235
         495      2375.9465       209.6438       154.2361       141.9920
         496      2159.0547       210.4950       155.0623       142.3511
         497      2170.4800       211.3430       155.8903       142.7028
         498      2207.8481       212.1850       156.7175       143.0458
         499      2571.8032       213.0230       157.5459       143.3809
         500      2794.2095       213.8559       158.3751       143.7070
         501      3080.7214       214.6748       159.2003       144.0157
         502      2381.3774       215.4927       160.0269       144.3208
         503      2541.8979       216.3035       160.8543       144.6137
         504      2650.6274       217.1052       161.6793       144.8947
         505      2264.4072       217.9039       162.5059       145.1686
         506      2364.6318       218.6917       163.3304       145.4277
         507      2263.7478       219.4754       164.1549       145.6799
         508      2284.6538       220.2501       164.9775       145.9196
         509      2493.9275       221.0160       165.7984       146.1471
         510      2839.2119       221.7735       166.6181       146.3623
         511      2493.8896       222.5279       167.4396       146.5697
         512      2877.4651       223.2729       168.2581       146.7651
         513      2606.9521       224.0095       169.0756       146.9479
         514      2446.0295       224.7417       169.8926       147.1236
         515      2232.5662       225.4617       170.7068       147.2826
         516      2362.8936       226.1787       171.5222       147.4345
         517      2864.8743       226.8825       172.3331       147.5702
         518      2630.4285       227.5830       173.1449       147.6987
         519      2606.0288       228.2746       173.9548       147.8141
         520      2546.8948       228.9521       174.7597       147.9124
         521      2153.4727       229.6238       175.5643       148.0008
         522      2379.4058       230.2877       176.3673       148.0778
         523      2886.1970       230.9438       177.1689       148.1425
         524      2222.1819       231.5915       177.9684       148.1954
         525      2597.4526       232.2314       178.7666       148.2361
         526      2439.3494       232.8594       179.5608       148.2613
         527      2383.7036       233.4794       180.3527       148.2751
         528      2899.9766       234.0931       181.1445       148.2775
         529      2706.5542       234.6973       181.9327       148.2677
         530      2492.1287       235.2947       182.7194       148.2472
         531      2641.2014       235.8845       183.5046       148.2145
         532      2311.7544       236.4620       184.2853       148.1662
         533      2551.0227       237.0334       185.0655       148.1067
         534      2427.5098       237.5979       185.8439       148.0365
         535      2817.2407       238.1522       186.6179       147.9535
         536      2635.1692       238.7018       187.3924       147.8603
         537      2196.8079       239.2399       188.1626       147.7516
         538      2801.9558       239.7714       188.9318       147.6317
         539      2533.3606       240.2956       189.6978       147.5016
         540      2626.3423       240.8120       190.4617       147.3594
         541      2099.7866       241.3217       191.2244       147.2053
         542      2035.4489       241.8256       191.9857       147.0411
         543      2532.4524       242.3193       192.7434       146.8627
         544      2870.3284       242.8071       193.4983       146.6754
         545      2569.4719       243.2856       194.2508       146.4735
         546      2832.0825       243.7587       195.0004       146.2640
         547      2732.3418       244.2229       195.7483       146.0391
         548      2928.8723       244.6812       196.4940       145.8046
         549      2423.4487       245.1362       197.2393       145.5624
         550      1829.7446       245.5806       197.9805       145.3050
         551      2591.0220       246.0240       198.7224       145.0421
         552      2830.3127       246.4557       199.4591       144.7636
         553      2408.8936       246.8845       200.1957       144.4772
         554      2667.8159       247.3065       200.9297       144.1796
         555      2716.7454       247.7232       201.6622       143.8720
         556      2617.1887       248.1334       202.3922       143.5534
         557      2311.3125       248.5419       203.1224       143.2284
         558      2900.5510       248.9455       203.8514       142.8932
         559      2618.1812       249.3409       204.5764       142.5460
         560      2235.2839       249.7354       205.3024       142.1926
         561      2909.2561       250.1264       206.0280       141.8297
         562      2913.0159       250.5115       206.7505       141.4576
         563      2605.9299       250.8941       207.4734       141.0767
         564      2447.4026       251.2725       208.1939       140.6883
         565      2589.5857       251.6484       208.9142       140.2917
         566      2437.9397       252.0205       209.6336       139.8859
         567      2292.1140       252.3865       210.3505       139.4690
         568      2497.2180       252.7543       211.0685       139.0497
         569      1966.9116       253.1156       211.7836       138.6188
         570      2447.6113       253.4768       212.5003       138.1815
         571      2785.6624       253.8369       213.2173       137.7372
         572      2302.0991       254.1913       213.9316       137.2826
         573      2489.5640       254.5498       214.6487       136.8266
         574      2285.4341       254.9059       215.3653       136.3628
         575      2218.6218       255.2536       216.0769       135.8867
         576      2487.2317       255.6087       216.7946       135.4100
         577      2677.0364       255.9601       217.5103       134.9254
         578      2640.0208       256.3170       218.2306       134.4390
         579      2177.5781       256.6680       218.9472       133.9424
         580      2604.0237       257.0269       219.6695       133.4470
         581      3071.0525       257.3796       220.3893       132.9392
         582      2393.5642       257.7381       221.1128       132.4313
         583      2498.1279       258.0970       221.8363       131.9194
         584      2242.5906       258.4578       222.5616       131.4030
         585      2429.0591       258.8206       223.2888       130.8823
         586      2816.5103       259.1847       224.0168       130.3579
         587      2267.7195       259.5534       224.7490       129.8301
         588      2136.8069       259.9221       225.4814       129.2968
         589      2370.2437       260.2971       226.2171       128.7650
         590      1961.2242       260.6714       226.9536       128.2250
         591      2205.6733       261.0546       227.6958       127.6876
         592      2328.5933       261.4378       228.4376       127.1455
         593      2024.6859       261.8262       229.1837       126.6008
         594      2566.4458       262.2228       229.9350       126.0583
         595      1678.8899       262.6190       230.6862       125.5094
         596      2200.9717       263.0226       231.4424       124.9610
         597      2538.7522       263.4331       232.2035       124.4128
         598      2680.4563       263.8466       232.9664       123.8617
         599      2547.6406       264.2679       233.7342       123.3121
         600      2248.9819       264.6958       234.5071       122.7612
         601      2711.6921       265.1308       235.2844       122.2111
         602      2106.9524       265.5713       236.0654       121.6603
         603      2067.6990       266.0197       236.8528       121.1083
         604      1773.2227       266.4749       237.6433       120.5594
         605      1988.0005       266.9380       238.4403       120.0090
         606      2733.8423       267.4148       239.2465       119.4646
         607      1807.1941       267.8921       240.0523       118.9163
         608      2150.0940       268.3826       240.8675       118.3727
         609      1664.3085       268.8817       241.6884       117.8308
         610      2291.6655       269.3918       242.5180       117.2900
         611      2328.4424       269.9105       243.3523       116.7533
         612      2190.1179       270.4393       244.1937       116.2191
         613      1964.5414       270.9732       245.0386       115.6829
         614      2255.7458       271.5190       245.8913       115.1521
         615      2428.0356       272.0704       246.7472       114.6217
         616      2393.7290       272.6399       247.6169       114.0980
         617      2109.6128       273.2194       248.4934       113.5776
         618      2172.5625       273.8163       249.3828       113.0645
         619      1678.6566       274.4161       250.2731       112.5502
         620      2152.5515       275.0291       251.1722       112.0427
         621      1846.8787       275.6548       252.0811       111.5377
         622      1940.6553       276.2905       252.9966       111.0369
         623      1572.8302       276.9438       253.9244       110.5453
         624      1640.8400       277.6063       254.8596       110.0536
         625      1812.9136       278.2859       255.8070       109.5709
         626      1667.1633       278.9773       256.7623       109.0936
         627      2662.7429       279.6851       257.7298       108.6237
         628      2029.5072       280.4059       258.7078       108.1560
         629      1564.7028       281.1401       259.6935       107.6989
         630      1975.8776       281.8833       260.6866       107.2414
         631      2104.5815       282.6480       261.6959       106.7947
         632      1963.0593       283.4251       262.7140       106.3538
         633      1734.4008       284.2172       263.7435       105.9188
         634      2240.1516       285.0236       264.7827       105.4920
         635      2168.7373       285.8486       265.8366       105.0729
         636      1719.2917       286.6880       266.9016       104.6592
         637      1882.7107       287.5439       267.9790       104.2534
         638      2027.0425       288.4158       269.0684       103.8550
         639      2098.6006       289.3051       270.1710       103.4654
         640      1878.4860       290.2073       271.2827       103.0823
         641      1843.3411       291.1263       272.4072       102.7074
         642      1956.0013       292.0615       273.5452       102.3376
         643      1990.7435       293.0174       274.6986       101.9797
         644      2014.6410       293.9884       275.8636       101.6289
         645      1425.5334       294.9805       277.0457       101.2875
         646      2011.3049       295.9845       278.2364       100.9520
         647      2202.0420       297.0101       279.4436       100.6294
         648      2103.9470       298.0496       280.6626       100.3097
         649      1519.1921       299.1100       281.8977       100.0025
         650      1947.9019       300.1897       283.1486        99.7034
         651      1775.6362       301.2810       284.4070        99.4128
         652      1646.3701       302.3946       285.6850        99.1291
         653      1616.5327       303.5299       286.9792        98.8602
         654      1788.9153       304.6768       288.2830        98.5944
         655      2194.8125       305.8511       289.6098        98.3416
         656      1575.7760       307.0428       290.9496        98.0999
         657      1744.1235       308.2459       292.2983        97.8633
         658      1460.7128       309.4758       293.6703        97.6372
         659      1666.1744       310.7172       295.0502        97.4197
         660      1753.1115       311.9795       296.4468        97.2136
         661      1664.5935       313.2663       297.8648        97.0172
         662      1422.4264       314.5705       299.2967        96.8301
         663      1543.1949       315.8968       300.7474        96.6528
         664      2252.0454       317.2407       302.2121        96.4858
         665      2141.4592       318.6002       303.6901        96.3247
         666      1969.0320       319.9873       305.1914        96.1775
         667      1823.2206       321.3917       306.7067        96.0398
         668      1570.7977       322.8097       308.2330        95.9088
         669      1343.6003       324.2529       309.7803        95.7922
         670      2036.8188       325.7149       311.3446        95.6803
         671      2127.6792       327.2055       312.9327        95.5853
         672      1529.8229       328.7100       314.5327        95.4956
         673      1452.6096       330.2392       316.1537        95.4187
         674      1377.2681       331.7832       317.7877        95.3472
         675      2049.9836       333.3559       319.4467        95.2888
         676      1558.8132       334.9455       321.1193        95.2409
         677      1260.7112       336.5498       322.8050        95.1984
         678      1802.2731       338.1768       324.5098        95.1680
         679      1712.7360       339.8279       326.2356        95.1492
         680      1656.0234       341.4993       327.9788        95.1401
         681      1782.7523       343.1919       329.7410        95.1396
         682      1668.9971       344.9018       331.5186        95.1454
         683      1820.0801       346.6389       333.3193        95.1670
         684      2194.2532       348.3924       335.1347        95.1945
         685      1954.5002       350.1616       336.9637        95.2290
         686      1388.3766       351.9543       338.8136        95.2741
         687      1715.3270       353.7732       340.6867        95.3311
         688      1470.1252       355.6050       342.5709        95.3946
         689      2012.3129       357.4653       344.4808        95.4697
         690      1836.7416       359.3400       346.4033        95.5509
         691      2039.9105       361.2306       348.3394        95.6411
         692      1132.2922       363.1538       350.3060        95.7414
         693      1905.1891       365.0944       352.2873        95.8518
         694      2485.1550       367.0539       354.2860        95.9688
         695      1348.5938       369.0404       356.3087        96.0983
         696      1228.9521       371.0302       358.3338        96.2304
         697      1800.2045       373.0553       360.3913        96.3762
         698      1495.2887       375.0997       362.4673        96.5258
         699      1836.3623       377.1619       364.5586        96.6855
         700      1899.1812       379.2444       366.6680        96.8551
         701      1727.5568       381.3511       368.8007        97.0297
         702      1823.5834       383.4709       370.9444        97.2122
         703      2247.9099       385.6104       373.1060        97.4026
         704      1367.4338       387.7681       375.2846        97.5992
         705      2099.6936       389.9457       377.4816        97.8021
         706      2417.7778       392.1462       379.7000        98.0131
         707      2113.9446       394.3578       381.9282        98.2292
         708      2176.8555       396.6012       384.1856        98.4578
         709      1797.1582       398.8591       386.4570        98.6892
         710      1802.4856       401.1318       388.7420        98.9261
         711      2159.1416       403.4268       391.0477        99.1708
         712      2386.3479       405.7402       393.3706        99.4217
         713      1709.5472       408.0782       395.7166        99.6804
         714      1244.9902       410.4276       398.0736        99.9414
         715      2029.1952       412.7967       400.4488       100.2090
         716      1499.3038       415.1759       402.8333       100.4809
         717      1727.1082       417.5762       405.2380       100.7575
         718      1324.2045       419.9959       407.6610       101.0399
         719      1977.9525       422.4390       410.1059       101.3307
         720      1490.8976       424.8952       412.5642       101.6206
         721      1718.9739       427.3756       415.0448       101.9204
         722      1788.2996       429.8703       417.5398       102.2205
         723      2326.3962       432.3892       420.0569       102.5313
         724      2250.7170       434.9100       422.5765       102.8387
         725      1867.1799       437.4563       425.1202       103.1541
         726      2146.9646       440.0162       427.6774       103.4712
         727      1804.9082       442.5879       430.2458       103.7910
         728      2658.4231       445.1854       432.8395       104.1154
         729      1945.3879       447.8000       435.4498       104.4429
         730      1583.6599       450.4291       438.0741       104.7732
         731      2647.7329       453.0685       440.7080       105.1072
         732      2033.3273       455.7373       443.3711       105.4445
         733      2894.1184       458.4144       446.0423       105.7831
         734      1664.5415       461.0997       448.7215       106.1222
         735      1197.0591       463.8126       451.4276       106.4670
         736      2231.2112       466.5338       454.1426       106.8096
         737      1800.7189       469.2861       456.8878       107.1587
         738      2171.9907       472.0466       459.6411       107.5084
         739      2943.4009       474.8202       462.4079       107.8569
         740      1862.3503       477.6001       465.1816       108.2035
         741      1880.5055       480.4100       467.9845       108.5557
         742      1965.4075       483.2244       470.7925       108.9047
         743      1760.8710       486.0567       473.6179       109.2576
         744      2406.5771       488.9071       476.4617       109.6104
         745      1734.2875       491.7724       479.3209       109.9618
         746      2132.8706       494.6365       482.1801       110.3067
         747      3088.3369       497.5322       485.0703       110.6578
         748      1898.0809       500.4395       487.9724       111.0074
         749      2825.1084       503.3521       490.8803       111.3544
         750      2033.7166       506.2924       493.8161       111.7036
         751      2277.2378       509.2443       496.7638       112.0509
         752      2845.9067       512.2105       499.7269       112.3952
         753      3184.9385       515.1964       502.7098       112.7394
         754      2337.9795       518.1736       505.6856       113.0750
         755      2028.1147       521.1804       508.6902       113.4163
         756      1162.5997       524.2002       511.7097       113.7500
         757      2981.7559       527.2352       514.7438       114.0864
         758      2507.1741       530.2882       517.7976       114.4171
         759      2575.5679       533.3647       520.8743       114.7514
         760      2322.6040       536.4229       523.9350       115.0722
         761      2687.7734       539.5095       527.0242       115.3950
         762      1959.1071       542.6171       530.1344       115.7187
         763      2272.5588       545.7263       533.2482       116.0325
         764      2192.6577       548.8480       536.3749       116.3450
         765      1703.2395       551.9882       539.5214       116.6518
         766      2714.7576       555.1414       542.6814       116.9567
         767      3074.1440       558.3240       545.8712       117.2621
         768      2505.2769       561.5055       549.0618       117.5566
         769      2743.5239       564.6985       552.2643       117.8494
         770      2102.2358       567.9078       555.4845       118.1364
         771      2255.1951       571.1224       558.7112       118.4170
         772      2022.4755       574.3694       561.9712       118.6951
         773      2662.2393       577.6070       565.2234       118.9637
         774      2290.7966       580.8576       568.4894       119.2281
         775      2237.9622       584.1346       571.7828       119.4890
         776      2812.9387       587.4155       575.0819       119.7403
         777      2018.3611       590.6974       578.3832       119.9849
         778      2062.9226       594.0088       581.7144       120.2284
         779      2375.9541       597.3309       585.0576       120.4649
         780      2876.1904       600.6581       588.4076       120.6924
         781      2334.8840       604.0022       591.7752       120.9165
         782      1275.3887       607.3614       595.1592       121.1336
         783      2080.3965       610.7404       598.5636       121.3481
         784      1685.8881       614.1342       601.9841       121.5562
         785      2897.0442       617.5278       605.4067       121.7511
         786      3395.4194       620.9373       608.8457       121.9427
         787      2636.0881       624.3602       612.2994       122.1277
         788      2712.8809       627.7642       615.7360       122.2991
         789      1877.4532       631.2067       619.2120       122.4681
         790      2377.9175       634.6741       622.7138       122.6327
         791      2441.8254       638.1406       626.2168       122.7844
         792      1979.2692       641.6281       629.7411       122.9340
         793      1528.3550       645.1238       633.2755       123.0725
         794      1860.8583       648.6242       636.8160       123.2021
         795      2464.9121       652.1343       640.3677       123.3218
         796      2420.9956       655.6690       643.9445       123.4394
         797      2323.7651       659.2038       647.5233       123.5447
         798      2923.8706       662.7623       651.1265       123.6455
         799      2207.7380       666.3099       654.7209       123.7313
         800      3178.9001       669.8804       658.3385       123.8155
         801      1242.0839       673.4917       661.9978       123.8952
         802      3498.4043       677.0895       665.6455       123.9605
         803      2413.3376       680.6911       669.2977       124.0197
         804      3352.5479       684.3081       672.9674       124.0664
         805      3538.0356       687.9312       676.6434       124.1087
         806      1257.3912       691.5814       680.3479       124.1436
         807      3036.3433       695.2279       684.0504       124.1650
         808      1924.0039       698.8792       687.7591       124.1756
         809      2650.7917       702.5491       691.4871       124.1804
         810      2914.5610       706.2225       695.2202       124.1735
         811      2780.9380       709.9059       698.9647       124.1563
         812      2957.7075       713.6111       702.7315       124.1337
         813      1769.1521       717.3237       706.5072       124.1003
         814      2319.5930       721.0538       710.3010       124.0608
         815      3345.8506       724.7956       714.1077       124.0111
         816      2090.9392       728.5395       717.9180       123.9497
         817      2757.0056       732.2929       721.7385       123.8808
         818      2028.0426       736.0933       725.6061       123.8108
         819      3339.4841       739.8772       729.4588       123.7259
         820      3527.5776       743.6739       733.3256       123.6304
         821      2020.7123       747.4861       737.2087       123.5261
         822      2876.7874       751.3113       741.1060       123.4119
         823      3012.4412       755.1314       744.9992       123.2873
         824      2084.7258       758.9891       748.9309       123.1542
         825      2296.7241       762.8583       752.8748       123.0135
         826      3135.6533       766.7418       756.8340       122.8630
         827      3359.7773       770.6316       760.8005       122.7016
         828      3606.2156       774.5495       764.7953       122.5355
         829      3281.3716       778.5030       768.8265       122.3632
         830      1612.5469       782.4443       772.8461       122.1798
         831       291.8066       786.4028       776.8840       121.9865
         832      3119.6108       790.3490       780.9105       121.7799
         833      3138.1985       794.3211       784.9631       121.5684
         834      3530.8281       798.3105       789.0339       121.3468
         835      3105.1199       802.2808       793.0863       121.1136
         836      2813.4717       806.3083       797.1966       120.8744
         837      4392.9346       810.3218       801.2936       120.6237
         838      1933.6847       814.3816       805.4371       120.3678
         839      2809.9229       818.4402       809.5803       120.1002
         840      1460.8542       822.5291       813.7539       119.8276
         841      1332.0006       826.6097       817.9201       119.5421
         842      2736.7805       830.6908       822.0871       119.2475
         843      2622.8848       834.7964       826.2791       118.9447
         844      2135.8730       838.9263       830.4960       118.6330
         845      3313.3450       843.0938       834.7503       118.3180
         846      2981.6924       847.2791       839.0225       117.9966
         847      2709.3296       851.4511       843.2817       117.6643
         848      3184.9585       855.6437       847.5621       117.3227
         849      2184.4224       859.8611       851.8676       116.9725
         850      1405.3969       864.0939       856.1886       116.6158
         851      3295.3254       868.3604       860.5437       116.2510
         852      1572.0477       872.6296       864.9016       115.8780
         853      1367.4531       876.9330       869.2934       115.5007
         854      2286.4985       881.2394       873.6888       115.1115
         855      2137.0479       885.5632       878.1021       114.7126
         856      1650.0620       889.9146       882.5422       114.3119
         857      1940.3739       894.2712       886.9881       113.8999
         858      3121.7734       898.6302       891.4363       113.4792
         859      3871.4590       903.0153       895.9105       113.0536
         860      4299.4224       907.4227       900.4068       112.6219
         861       846.3631       911.8460       904.9188       112.1832
         862      2197.7249       916.2940       909.4554       111.7394
         863      3052.9031       920.7547       914.0044       111.2886
         864      3813.6572       925.2517       918.5899       110.8299
         865      3645.1602       929.7537       923.1798       110.3670
         866      1275.5117       934.2825       927.7960       109.9018
         867      3113.4363       938.8162       932.4173       109.4251
         868      1567.8973       943.3919       937.0802       108.9451
         869      2510.7522       947.9777       941.7526       108.4610
         870      1577.1534       952.5506       946.4121       107.9668
         871      1802.9453       957.1571       951.1048       107.4680
         872      1703.7974       961.7447       955.7786       106.9585
         873      1023.1038       966.4301       960.5494       106.4520
         874      3653.3721       971.1021       965.3063       105.9385
         875      4312.3032       975.8158       970.1046       105.4209
         876       950.2333       980.5783       974.9511       104.9004
         877      2718.0823       985.3307       979.7868       104.3766
         878      3093.3821       990.0918       984.6311       103.8425
         879       642.9049       994.8675       989.4892       103.3078
         880      3547.4202       999.6851       994.3886       102.7689
         881      2551.6465      1004.5267       999.3115       102.2274
         882      1773.2322      1009.3781      1004.2438       101.6786
         883       835.5479      1014.2973      1009.2427       101.1346
         884      1244.2526      1019.2013      1014.2262       100.5807
         885      2034.9893      1024.1440      1019.2477       100.0254
         886      3588.9634      1029.0680      1024.2500        99.4632
         887       838.3892      1034.0699      1029.3292        98.9036
         888      1338.4703      1039.0780      1034.4141        98.3395
         889       235.8660      1044.1529      1039.5652        97.7730
         890      -151.0634      1049.2043      1044.6920        97.2024
         891      1220.1783      1054.3100      1049.8723        96.6319
         892      2668.5681      1059.4021      1055.0385        96.0549
         893      1725.2427      1064.5514      1060.2611        95.4779
         894      1889.8469      1069.6973      1065.4795        94.8988
         895      2817.6895      1074.8558      1070.7101        94.3123
         896      1786.3915      1080.0475      1075.9730        93.7271
         897      3243.9573      1085.2561      1081.2521        93.1384
         898       666.0476      1090.5353      1086.6006        92.5537
         899      1919.3146      1095.8590      1091.9931        91.9677
         900      2452.2969      1101.1573      1097.3593        91.3776
         901      4811.0640      1106.4798      1102.7489        90.7876
         902       698.0848      1111.8424      1108.1779        90.1960
         903      3972.6274      1117.2340      1113.6352        89.6016
         904      2826.3669      1122.6693      1119.1350        89.0120
         905      1881.6150      1128.1397      1124.6693        88.4203
         906      3969.4919      1133.6074      1130.2001        87.8264
         907      2020.9045      1139.1030      1135.7579        87.2328
         908      1783.5951      1144.6236      1141.3399        86.6393
         909      -314.6270      1150.1696      1146.9464        86.0461
         910      3391.9800      1155.7430      1152.5795        85.4534
         911      2337.7324      1161.4171      1158.3124        84.8660
         912      1263.9386      1167.1104      1164.0636        84.2781
         913      2622.5271      1172.8179      1169.8282        83.6894
         914       843.2413      1178.5130      1175.5794        83.1016
         915      3188.5981      1184.2901      1181.4120        82.5141
         916      1628.9125      1190.0853      1187.2617        81.9296
         917      3434.0151      1195.9191      1193.1490        81.3495
         918      2297.4224      1201.7804      1199.0632        80.7691
         919      2964.0188      1207.6899      1205.0247        80.1903
         920      2124.5642      1213.6106      1210.9967        79.6104
         921      1136.4928      1219.5642      1217.0004        79.0374
         922      -303.9148      1225.5823      1223.0681        78.4636
         923      1262.0819      1231.6236      1229.1580        77.8928
         924      2151.0630      1237.6702      1235.2524        77.3240
         925       337.6245      1243.7977      1241.4268        76.7617
         926       689.8516      1249.8963      1247.5716        76.1959
         927       721.1050      1256.0600      1253.7806        75.6356
         928       754.2609      1262.2482      1260.0134        75.0784
         929      -604.0458      1268.4493      1266.2584        74.5204
         930       784.5791      1274.6855      1272.5375        73.9693
         931      1487.1362      1281.0438      1278.9377        73.4270
         932      1952.7614      1287.3481      1285.2834        72.8799
         933      3558.5566      1293.7626      1291.7384        72.3439
         934      1671.0968      1300.1887      1298.2043        71.8068
         935      -843.0358      1306.6194      1304.6740        71.2751
         936      3836.6689      1313.1858      1311.2784        70.7524
         937      3792.0918      1319.7150      1317.8452        70.2260
         938      1408.1489      1326.3290      1324.4958        69.7089
         939      1645.0294      1332.9690      1331.1716        69.1983
         940       895.9213      1339.6089      1337.8468        68.6860
         941      2319.4807      1346.3459      1344.6183        68.1838
         942       825.3924      1353.0740      1351.3802        67.6827
         943       806.9828      1359.8666      1358.2056        67.1898
         944       823.9982      1366.6958      1365.0672        66.7006
         945      3448.3840      1373.5029      1371.9060        66.2119
         946       776.1759      1380.3987      1378.8327        65.7327
         947       642.4993      1387.3338      1385.7982        65.2571
         948      4733.5669      1394.3333      1392.8274        64.7863
         949      1876.4807      1401.3787      1399.9016        64.3260
         950      2023.7240      1408.4543      1407.0055        63.8690
         951      1725.1746      1415.5852      1414.1640        63.4160
         952      1465.6456      1422.6989      1421.3048        62.9675
         953     -1752.4414      1429.8958      1428.5280        62.5280
         954      -664.4279      1437.1252      1435.7832        62.0914
         955      2756.9602      1444.4206      1443.1039        61.6629
         956      2807.1755      1451.7632      1450.4711        61.2381
         957      1106.2509      1459.0887      1457.8205        60.8211
         958      -892.9100      1466.4900      1465.2452        60.4090
         959      1921.7827      1473.9594      1472.7375        60.0048
         960      1565.5326      1481.5014      1480.3018        59.6086
         961      3692.4424      1489.0248      1487.8470        59.2134
         962       722.0872      1496.6738      1495.5172        58.8282
         963      1542.3032      1504.2683      1503.1324        58.4493
         964      -133.2483      1511.9584      1510.8426        58.0760
         965      -657.1093      1519.6881      1518.5920        57.7090
         966      -250.7215      1527.5564      1526.4793        57.3524
         967      1573.4626      1535.4170      1534.3585        57.0006
         968      2356.5061      1543.3539      1542.3137        56.6532
         969      4543.0654      1551.3520      1550.3295        56.3164
         970       943.4289      1559.3488      1558.3435        55.9845
         971      2654.9512      1567.4034      1566.4150        55.6563
         972     -1025.7637      1575.4780      1574.5059        55.3372
         973      2893.8528      1583.6279      1582.6718        55.0226
         974      1670.5232      1591.8051      1590.8644        54.7171
         975      2295.6006      1600.0467      1599.1210        54.4187
         976      2180.9973      1608.3573      1607.4464        54.1244
         977      1071.8330      1616.6412      1615.7445        53.8376
         978      4796.2100      1625.1152      1624.2323        53.5587
         979     -1703.1770      1633.5949      1632.7255        53.2883
         980     -1122.6472      1642.0138      1641.1576        53.0209
         981      1551.0814      1650.5966      1649.7532        52.7604
         982        -0.5443      1659.1905      1658.3594        52.5084
         983       801.2780      1667.9417      1667.1225        52.2665
         984      2389.1428      1676.7321      1675.9246        52.0307
         985       598.3931      1685.4773      1684.6812        51.7983
         986      2917.0059      1694.3801      1693.5950        51.5723
         987     -1304.2761      1703.2128      1702.4385        51.3524
         988       760.3028      1712.1868      1711.4229        51.1417
         989      4137.3384      1721.2108      1720.4569        50.9374
         990      3800.9475      1730.2797      1729.5356        50.7394
         991      2129.4521      1739.4109      1738.6763        50.5479
         992       378.8655      1748.6393      1747.9138        50.3641
         993      2219.2952      1757.8696      1757.1531        50.1854
         994      2254.8484      1767.1324      1766.4246        50.0123
         995       541.6788      1776.5525      1775.8529        49.8519
         996      2289.3474      1785.9951      1785.3037        49.6936
         997      -222.0431      1795.4502      1794.7666        49.5405
         998      -462.5179      1805.0019      1804.3259        49.3949
         999      1613.1182      1814.5352      1813.8666        49.2536
        1000       115.1050      1824.1632      1823.5017        49.1198
        1001      1505.1299      1833.8174      1833.1628        48.9915
        1002      2549.8591      1843.6358      1842.9878        48.8723
        1003      2232.4285      1853.3865      1852.7450        48.7562
        1004      2022.9493      1863.2301      1862.5949        48.6473
        1005      3621.1919      1873.1924      1872.5633        48.5430
        1006       220.3732      1883.2108      1882.5875        48.4483
        1007      4301.5493      1893.2038      1892.5862        48.3543
        1008      2809.7954      1903.3962      1902.7840        48.2701
        1009     -1315.3500      1913.6434      1913.0364        48.1921
        1010      1654.5634      1923.8760      1923.2741        48.1184
        1011      1651.7239      1934.2957      1933.6988        48.0508
        1012       851.6409      1944.6544      1944.0622        47.9864
        1013       733.9129      1955.2008      1954.6132        47.9312
        1014      1753.5413      1965.6945      1965.1113        47.8795
        1015      1517.8486      1976.2599      1975.6809        47.8309
        1016       283.8484      1986.9363      1986.3615        47.7897
        1017     -2569.3955      1997.6904      1997.1195        47.7549
        1018      1239.1962      2008.5386      2007.9716        47.7238
        1019      2139.8337      2019.4615      2018.8981        47.6991
        1020      -893.3417      2030.4131      2029.8532        47.6796
        1021       202.9014      2041.4437      2040.8872        47.6634
        1022     -1370.7887      2052.4787      2051.9255        47.6518
        1023       -27.5280      2063.7405      2063.1904        47.6468
        1024      1509.0088      2074.9393      2074.3922        47.6450
        1025      3221.9146      2086.2975      2085.7533        47.6481
        1026      1269.6912      2097.7298      2097.1884        47.6575
        1027     -3812.4033      2109.2782      2108.7395        47.6708
        1028      1772.5723      2120.8564      2120.3202        47.6860
        1029      2724.7385      2132.4478      2131.9141        47.7060
        1030      1069.2239      2144.0853      2143.5540        47.7283
        1031      1593.3929      2155.9235      2155.3945        47.7564
        1032      4873.8833      2167.7820      2167.2553        47.7894
        1033      1379.5066      2179.7008      2179.1761        47.8217
        1034      5257.0459      2191.7172      2191.1945        47.8640
        1035     -2680.5393      2203.8129      2203.2921        47.9060
        1036     -1420.8611      2216.0376      2215.5187        47.9553
        1037       549.6301      2228.2275      2227.7105        48.0017
        1038      -871.9554      2240.5200      2240.0046        48.0548
        1039     -3094.2312      2252.9758      2252.4620        48.1127
        1040       456.2074      2265.6267      2265.1145        48.1726
        1041      2372.1135      2278.1438      2277.6331        48.2341
        1042       172.9212      2290.7990      2290.2897        48.2998
        1043     -1583.3098      2303.5874      2303.0796        48.3661
        1044      -483.6117      2316.3914      2315.8849        48.4373
        1045     -1117.6165      2329.4343      2328.9292        48.5114
        1046      2080.9827      2342.5049      2342.0009        48.5904
        1047      -871.4163      2355.6866      2355.1838        48.6696
        1048      5903.0156      2368.8350      2368.3334        48.7460
        1049      4479.2803      2382.1167      2381.6162        48.8296
        1050      2652.5884      2395.3080      2394.8087        48.9092
        1051       599.6026      2408.8409      2408.3425        48.9969
        1052      3220.9832      2422.3471      2421.8497        49.0853
        1053      1240.1697      2436.0296      2435.5332        49.1750
        1054      2549.5396      2449.5607      2449.0653        49.2630
        1055      2627.6372      2463.4581      2462.9635        49.3594
        1056      -328.8759      2477.2768      2476.7832        49.4489
        1057       330.0054      2491.3424      2490.8497        49.5478
        1058       990.8129      2505.3657      2504.8738        49.6437
        1059     -2271.1604      2519.5184      2519.0274        49.7402
        1060      1208.1769      2533.7351      2533.2450        49.8357
        1061      -231.8175      2548.0592      2547.5699        49.9347
        1062      -866.0067      2562.5916      2562.1030        50.0390
        1063       982.2244      2577.2517      2576.7640        50.1403
        1064     -2954.2080      2591.7592      2591.2722        50.2400
        1065      3074.9126      2606.5539      2606.0677        50.3432
        1066       104.1763      2621.2874      2620.8019        50.4432
        1067     -1602.1924      2636.2749      2635.7903        50.5493
        1068      2015.3773      2651.3106      2650.8267        50.6510
        1069      7918.3813      2666.5394      2666.0563        50.7576
        1070       -53.6998      2681.8161      2681.3337        50.8632
        1071      1538.7804      2697.1109      2696.6293        50.9638
        1072      1717.3704      2712.4263      2711.9455        51.0662
        1073     -9252.2705      2727.8226      2727.3426        51.1680
        1074      -796.2228      2743.3513      2742.8722        51.2671
        1075       -91.3975      2759.0611      2758.5828        51.3709
        1076      3627.5435      2774.8918      2774.4143        51.4717
        1077      3673.8047      2790.8038      2790.3272        51.5753
        1078     -1057.3912      2806.7962      2806.3205        51.6752
        1079     -1718.0524      2822.9197      2822.4448        51.7724
        1080      2979.3022      2839.0739      2838.6000        51.8713
        1081     -1078.9016      2855.3088      2854.8359        51.9666
        1082       670.7245      2871.7707      2871.2987        52.0641
        1083      1871.9728      2888.4152      2887.9442        52.1629
        1084     -1569.7347      2904.9956      2904.5256        52.2555
        1085     -4545.8354      2921.8090      2921.3400        52.3503
        1086       312.5959      2938.5768      2938.1088        52.4424
        1087     -1527.1970      2955.4734      2955.0066        52.5316
        1088      2641.8604      2972.2922      2971.8263        52.6176
        1089      4426.7578      2989.4992      2989.0345        52.7053
        1090      2247.5173      3006.7882      3006.3248        52.7894
        1091      -441.6452      3024.3896      3023.9273        52.8771
        1092      7558.1235      3041.6568      3041.1958        52.9569
        1093      -263.5362      3059.2614      3058.8016        53.0344
        1094      5409.8550      3076.8850      3076.4265        53.1104
        1095       414.6078      3094.7166      3094.2595        53.1881
        1096     -1090.3702      3112.6221      3112.1664        53.2620
        1097      1927.3999      3130.7752      3130.3209        53.3350
        1098      4902.8374      3148.6613      3148.2085        53.3984
        1099      1867.2683      3167.0905      3166.6391        53.4692
        1100      6602.0596      3185.4076      3184.9577        53.5331
        1101     -2051.7776      3203.8068      3203.3586        53.5932
        1102      1657.0094      3222.3518      3221.9051        53.6541
        1103      3440.1990      3241.0633      3240.6182        53.7094
        1104      3322.1472      3259.7449      3259.3015        53.7624
        1105       173.4456      3278.8363      3278.3946        53.8171
        1106     -1160.0348      3297.9477      3297.5078        53.8672
        1107     -1395.2572      3317.2278      3316.7896        53.9148
        1108      3457.4458      3336.5901      3336.1537        53.9589
        1109      5715.4097      3355.8853      3355.4509        53.9968
        1110     -1223.0320      3375.4305      3374.9980        54.0336
        1111      1754.4568      3395.1275      3394.6969        54.0679
        1112      -148.2587      3414.9767      3414.5481        54.1028
        1113       722.1486      3434.9183      3434.4917        54.1308
        1114       937.6086      3455.1748      3454.7503        54.1588
        1115     -2035.7948      3475.5575      3475.1352        54.1837
        1116      1584.8335      3496.0226      3495.6023        54.2081
        1117       588.1203      3516.3505      3515.9325        54.2220
        1118     -1899.9006      3536.8954      3536.4796        54.2343
        1119      -801.7969      3557.7828      3557.3693        54.2469
        1120      4932.9985      3578.5856      3578.1743        54.2530
        1121      7926.6831      3599.4511      3599.0421        54.2552
        1122     -2733.6223      3620.5902      3620.1837        54.2564
        1123     -2809.4304      3641.8110      3641.4070        54.2507
        1124     -1238.8088      3663.1259      3662.7242        54.2446
        1125     -2340.2668      3684.5242      3684.1250        54.2315
        1126      5428.3574      3706.1450      3705.7485        54.2167
        1127      4275.0000      3728.0940      3727.6999        54.2017
        1128      1145.3223      3750.1360      3749.7445        54.1831
        1129     -1264.1721      3772.3909      3772.0021        54.1625
        1130      3372.8093      3794.6593      3794.2732        54.1339
        1131     -1829.2343      3816.9846      3816.6011        54.1044
        1132      1769.3990      3839.3753      3838.9946        54.0676
        1133      1767.4644      3861.9184      3861.5404        54.0281
        1134     -3290.9622      3884.8029      3884.4277        53.9884
        1135       611.8083      3907.9282      3907.5558        53.9471
        1136      5394.8042      3931.1991      3930.8296        53.8995
        1137     -1526.0118      3954.8170      3954.4503        53.8550
        1138      1349.1794      3978.3552      3977.9914        53.8013
        1139      4212.3535      4002.2597      4001.8987        53.7475
        1140      5008.4570      4025.9549      4025.5970        53.6828
        1141      2619.7158      4050.0340      4049.6790        53.6214
        1142     -1059.1831      4074.2560      4073.9041        53.5538
        1143      1382.5012      4098.8288      4098.4798        53.4860
        1144      2222.9314      4123.3487      4123.0027        53.4124
        1145     -2637.7729      4148.2172      4147.8742        53.3385
        1146      -515.4443      4172.9438      4172.6038        53.2578
        1147      1837.8225      4197.6128      4197.2761        53.1683
        1148      4624.2383      4222.6299      4222.2963        53.0784
        1149      2427.6685      4247.9297      4247.5992        52.9872
        1150      1459.8970      4273.3720      4273.0446        52.8929
        1151      3537.0632      4298.7911      4298.4668        52.7934
        1152     -3027.5312      4324.4730      4324.1519        52.6892
        1153     -4712.0107      4350.5037      4350.1859        52.5876
        1154     -1341.8352      4376.8033      4376.4887        52.4811
        1155      8347.4873      4402.9682      4402.6568        52.3683
        1156      1754.8204      4429.2681      4428.9598        52.2522
        1157      5455.7388      4455.8850      4455.5800        52.1319
        1158      4120.8994      4482.8094      4482.5076        52.0137
        1159     -1226.6627      4509.9867      4509.6881        51.8935
        1160      2535.4922      4537.0941      4536.7988        51.7646
        1161    -10322.1074      4564.5535      4564.2615        51.6381
        1162       -80.1719      4592.2914      4592.0026        51.5069
        1163     -7051.5420      4620.0016      4619.7160        51.3705
        1164       -37.8002      4648.2217      4647.9393        51.2383
        1165     -5043.1475      4676.4282      4676.1489        51.0980
        1166     -7094.6763      4705.1703      4704.8944        50.9587
        1167      3935.4270      4733.8807      4733.6079        50.8175
        1168      6210.3735      4762.7248      4762.4553        50.6698
        1169      4503.8350      4791.6119      4791.3456        50.5178
        1170      3408.3259      4820.8500      4820.5869        50.3680
        1171      6060.2490      4850.1814      4849.9215        50.2113
        1172     -1155.4054      4879.8536      4879.5969        50.0566
        1173      2970.6816      4909.8011      4909.5475        49.8968
        1174      6482.8984      4940.0761      4939.8257        49.7387
        1175      2404.7183      4970.2532      4970.0059        49.5749
        1176       633.8149      5000.6342      5000.3901        49.4085
        1177      8673.1553      5031.1429      5030.9020        49.2386
        1178     -1194.6500      5061.7490      5061.5112        49.0651
        1179      -355.4473      5092.5575      5092.3228        48.8920
        1180      6877.7295      5123.6397      5123.4081        48.7168
        1181      -904.1006      5155.0915      5154.8630        48.5405
        1182     -4694.0718      5186.9729      5186.7475        48.3636
        1183      3408.7612      5218.7518      5218.5294        48.1809
        1184      9296.4180      5250.6369      5250.4175        47.9978
        1185        25.9215      5282.6843      5282.4679        47.8115
        1186      -402.3774      5315.3094      5315.0960        47.6257
        1187       272.5816      5348.2149      5348.0045        47.4408
        1188      7149.6255      5381.5916      5381.3843        47.2554
        1189     -6432.4619      5414.9380      5414.7334        47.0650
        1190       966.2922      5448.3811      5448.1795        46.8739
        1191     -3850.2483      5482.2391      5482.0403        46.6816
        1192     -3995.9517      5516.3915      5516.1956        46.4903
        1193      3522.6584      5550.9597      5550.7666        46.2976
        1194       258.0807      5585.1775      5584.9872        46.1005
        1195       478.3630      5619.9310      5619.7434        45.9030
        1196      9375.3164      5655.1530      5654.9683        45.7047
        1197       112.8482      5691.4318      5691.2496        45.5132
        1198      2322.1509      5726.6724      5726.4931        45.3116
        1199     -4873.3315      5775.1737      5774.9969        45.2093
        1200      7194.9780      5811.3539      5811.1797        45.0078
